          Elapsed time             Pressure
                 (hr)                (atm)
  0 250
  0.01 246.3526974774642
  0.02 245.4999905659997
  0.03 244.8746456846483
  0.04 244.3612337304212
  0.05 243.9176414706107
  0.06 243.5228363351621
  0.07000000000000001 243.1646790222165
  0.08 242.8352388966551
  0.09 242.5291524671054
  0.1009816608871767 242.2153058343082
  0.113303287061475 241.8863977307603
  0.1271283790160478 241.5418630010019
  0.1426403873215001 241.181097164739
  0.160045146903503 240.8035331852209
  0.179573608347199 240.4086628190129
  0.2014849024711504 239.9959172870252
  0.2260697788358621 239.5647832927451
  0.2536544638138006 239.114787628089
  0.2846049894151538 238.6453792876912
  0.3193320503102176 238.1561451349107
  0.3582964534981471 237.6467774485926
  0.4020152329358663 237.1168672412867
  0.4510685102645444 236.5660507235828
  0.5061071926713134 235.9940667544912
  0.5678616100321731 235.400856066458
  0.6371512059457231 234.786240728077
  0.7148954112518521 234.1500105352815
  0.8021258443203695 233.4923381004989
  0.8999999999999984 232.8133884811761
  1.009816608871765 232.1130728055393
  1.133032870614748 231.3919016973062
  1.271283790160476 230.6501484245054
  1.426403873214999 229.8880628137202
  1.600451469035027 229.1063523270327
  1.795736083471987 228.3055289175912
  2.0148490247115 227.4862352536899
  2.260697788358616 226.6490751656397
  2.536544638138001 225.7947919322539
  2.846049894151533 224.9240891530065
  3.19332050310217 224.0379206486782
  3.582964534981465 223.1369102819592
  4.020152329358655 222.2219300603496
  4.510685102645436 221.2938042706995
  5.061071926713125 220.3534959173054
  5.67861610032172 219.4017239896289
  6.371512059457219 218.4397371250133
  7.148954112518508 217.4692054454659
  8.021258443203681 216.4910350885878
  8.999999999999968 215.5040137008579
  10.09816608871764 214.5083032367709
  11.33032870614746 213.5055728808803
  12.71283790160474 212.4890964596944
  14.26403873214997 211.4558992270339
  16.00451469035024 210.398644850144
  17.95736083471984 209.3072742167915
  20.14849024711497 208.1691678410638
  22.60697788358612 206.968773671002
  25.36544638137997 205.6877124993973
  28.46049894151529 204.3050085652075
  31.93320503102165 202.7972690992463
  35.82964534981459 201.1389465977945
  40.2015232935865 199.3024433267661
  45.10685102645429 197.2581829161727
  50.1068510264543 195.1832718616739
  55.10685102645429 193.1123048943601
  60.10685102645429 191.0427544478879
  65.10685102645429 188.9733370883768
  70.10685102645429 186.9034254267025
  75.10685102645429 184.8327521879954
  80.10685102645429 182.7612394047151
  85.10685102645429 180.6888732222097
  90.10685102645429 178.6156888804036
  95.10685102645429 176.5417400900642
  100.1068510264543 174.4671632948604
  105.1068510264543 172.3919633255136
  110.1068510264543 170.3161929637006
  115.1068510264543 168.2399944832993
  120.1068510264543 166.1633033804382
  125.1068510264543 164.0862809459778
  130.1068510264543 162.0088583577937
  135.1068510264543 159.9311692352715
  140.1068510264543 157.8531410884909
  145.1068510264543 155.7749196706288
  150.1068510264543 153.6963830644485
  155.1068510264543 151.6177253685022
  160.1068510264543 149.5388024716256
  165.1068510264543 147.4597283613213
  170.1068510264543 145.3804957098757
  175.1068510264543 143.3010408892103
  180.1068510264543 141.2215485680191
  185.1068510264543 139.1418635365139
  190.1068510264543 137.0620240270087
  195.1068510264543 134.9821550279262
  200.1068510264543 132.902115536788
  205.1068510264543 130.8219453986092
  210.1068510264543 128.7417729136927
  215.1068510264543 126.6614530211353
  220.1068510264543 124.5809948341777
  225.1068510264543 122.5005607043131
  230.1068510264543 120.4200181917707
  235.1068510264543 118.339349116003
  240.1068510264543 116.2586305058059
  245.1068510264543 114.1779092937301
  250.1068510264543 112.0970755098082
  255.1068510264543 110.0161342357113
  260.1068510264543 107.9351933066304
  265.1068510264543 105.8542297948152
  270.1068510264543 103.7731669659942
  275.1068510264543 101.6920096191272
  280.1068510264543 99.61084685877238
  285.1068510264543 97.52969103059549
  290.1068510264543 95.44844815880281
  295.1068510264543 93.36711928348041
  300.1068510264543 91.28572096083286
  305.1068510264543 89.20441033875285
  310.1068510264543 87.12302626194946
  315.1068510264543 85.04156412345294
  320.1068510264543 82.96002819638545
  325.1068510264543 80.87846929958812
  330.1068510264543 78.7969717482258
  335.1068510264543 76.71540806238431
  340.1068510264543 74.63377489471773
  345.1068510264543 72.55207590491926
  350.1068510264543 70.47033360189745
  355.1068510264543 68.3886867957481
  360.1068510264543 66.3069830416698
  365.1068510264543 64.22521754865045
  370.1068510264543 62.143391337191
  375.1068510264544 60.06151055858572
  380.1068510264543 57.97966391003061
  385.1068510264544 55.89785038340519
  390.1068510264543 53.81598414592579
  395.1068510264543 51.73406245013244
  400.1068510264543 49.65208703382082
  405.1068510264543 47.57006362998295
  410.1068510264543 45.4880758230636
  415.1068510264543 43.40613058728726
  420.1068510264543 41.32413889941999
  425.1068510264543 39.24209767117645
  430.1068510264543 37.160007463133
  435.1068510264543 35.07787211528532
  440.1068510264543 32.99569841050314
  445.1068510264543 30.91364458308036
  450.1068510264544 28.83155698450821
  455.1068510264543 26.74942639637785
  460.1068510264544 24.66725115130787
  465.1068510264543 22.58503239749023
  470.1068510264543 20.50277383290057
  475.1068510264543 18.42048146148122
  480.1068510264543 16.33830907609377
  485.1068510264543 14.25611135779912
  490.1068510264543 12.17387557839415
  495.1068510264543 10.09159976228623
  500.1068510264543 8.009284224522945
  505.1068510264543 5.926931370506744
  510.1068510264543 3.844545511117463
  515.1068510264543 1.762189544563006
  520.1068510264543 -0.3200928681908469
  525.1068510264543 -2.402406892739755
  530.1068510264543 -4.484755779150439
  535.1068510264543 -6.567140827877958
  540.1068510264543 -8.649561546821399
  545.1068510264543 -10.7320157971385
  550.1068510264543 -12.81449992865001
  555.1068510264543 -14.89698168305014
  560.1068510264543 -16.97935644032196
  565.1068510264543 -19.06175841666811
  570.1068510264543 -21.14419096444521
  575.1068510264543 -23.22665584135872
  580.1068510264543 -25.30915332936761
  585.1068510264543 -27.39168234567129
  590.1068510264543 -29.47424054633649
  595.1068510264543 -31.55682442305822
  600.1068510264543 -33.63937757742534
  605.1068510264543 -35.7218462100718
  610.1068510264543 -37.80433950659513
  615.1068510264543 -39.88686032361392
  620.1068510264543 -41.96941024937923
  625.1068510264543 -44.05198969155558
  630.1068510264543 -46.13459795958044
  635.1068510264543 -48.21723334194824
  640.1068510264543 -50.29989317874289
  645.1068510264543 -52.38257392970701
  650.1068510264543 -54.46514946190903
  655.1068510264543 -56.54771072250406
  660.1068510264543 -58.63029515124979
  665.1068510264543 -60.71290488893665
  670.1068510264543 -62.79554108640586
  675.1068510264543 -64.87820396827051
  680.1068510264543 -66.96089289297021
  685.1068510264543 -69.04360640940679
  690.1068510264543 -71.12634231032867
  695.1068510264543 -73.20909768268965
  700.1068510264543 -75.29179498777816
  705.1068510264543 -77.37442597226365
  710.1068510264543 -79.45707672307253
  715.1068510264543 -81.53974949370534
  720.1068510264543 -83.62244572499847
  725.1068510264543 -85.70516609347919
  730.1068510264543 -87.78791055717007
  735.1068510264543 -89.87067839893925
  740.1068510264543 -91.9534682675631
  745.1068510264543 -94.03627821660868
  750.1068510264543 -96.11910574126091
  755.1068510264543 -98.20189457040914
  760.1068510264541 -100.2845941515698
  765.1068510264543 -102.3673109797825
  770.1068510264543 -104.4500471856994
  775.1068510264543 -106.5328042422969
  780.1068510264544 -108.6155830011262
  785.1068510264543 -110.6983837267753
  790.1068510264543 -112.7812061296279
  795.1068510264543 -114.8640493970052
  800.1068510264544 -116.9469122227815
  805.1068510264543 -119.0297928355352
  810.1068510264543 -121.1126890253325
  815.1068510264541 -123.1955481483068
  820.1068510264544 -125.2783131370758
  825.1068510264543 -127.3610934055584
  830.1068510264543 -129.4438908747987
  835.1068510264541 -131.5267069377192
  840.1068510264543 -133.6095424861072
  845.1068510264543 -135.6923979363482
  850.1068510264543 -137.7752732539958
  855.1068510264544 -139.8581679772025
  860.1068510264543 -141.9410812390839
  865.1068510264543 -144.0240117890751
  870.1068510264543 -146.1069580132916
  875.1068510264544 -148.1899179539869
  880.1068510264543 -150.272836057755
  885.1068510264543 -152.3556617587791
  890.1068510264541 -154.4385010833188
  895.1068510264544 -156.5213557403745
  900.1068510264543 -158.6042270159147
  905.1068510264543 -160.6871157929222
  910.1068510264541 -162.7700225705525
  915.1068510264543 -164.8529474825081
  920.1068510264543 -166.9358903146086
  925.1068510264543 -169.0188505216269
  930.1068510264544 -171.1018272434177
  935.1068510264543 -173.1848193203493
  940.1068510264543 -175.267825308092
  945.1068510264543 -177.3508434917913
  950.1068510264544 -179.4338210554489
  955.1068510264543 -181.5167027667869
  960.1068510264543 -183.5995966092133
  965.1068510264541 -185.6825041037994
  970.1068510264544 -187.7654264326111
  975.1068510264543 -189.8483644536034
  980.1068510264543 -191.9313187148869
  985.1068510264541 -194.01428946847
  990.1068510264543 -196.0972766834274
  995.1068510264543 -198.1802800585723
  1000 -200.2187843334714

